{
  "local_port": 49950,
  "remote_port": 443,
  "prompt": "I want to learn about the \"Internet of things.\" What is the best book to learn more?",
  "response": "Here are some highly recommended books about the Internet of Things (IoT):\n\n1. \"The Internet of Things: A Comprehensive Guide\" by Pethuru Raj and Anupama C. Raman\n- Good for beginners and provides a broad overview\n\n2. \"Building the Internet of Things\" by Maciej Kranz\n- Focuses on practical implementation and business strategies\n\n3. \"IoT Fundamentals: Networking Technologies, Protocols, and Use Cases for the Internet of Things\" by David Hanes, et al.\n- Technical deep dive with strong networking focus\n\n4. \"Designing the Internet of Things\" by Adrian McEwen and Hakim Cassimally\n- More design-oriented, great for those interested in product development\n\n5. \"The IoT Architect's Guide\" by Perry Lea\n- Comprehensive technical guide for professionals\n\nThe \"best\" book depends on your specific interests and background:\n- For beginners: \"Building the Internet of Things\"\n- For technical depth: \"IoT Fundamentals\"\n- For design perspective: \"Designing the Internet of Things\"\n\nI recommend reading reviews and previewing the books to see which matches your learning style and goals.",
  "temperature": 1.0,
  "data_lengths": [
    1583,
    1065,
    139,
    139,
    405,
    405,
    409,
    445,
    433,
    431,
    415,
    430,
    410,
    419,
    415,
    412,
    427,
    417,
    420,
    422,
    139,
    430,
    418,
    408,
    429,
    433,
    427,
    420,
    416,
    419,
    424,
    440,
    416,
    410,
    425,
    427,
    431,
    437,
    420,
    412,
    419,
    424,
    431,
    451,
    419,
    424,
    426,
    446,
    435,
    440,
    423,
    441,
    428,
    430,
    445,
    426,
    439,
    434,
    449,
    406,
    409,
    507,
    113
  ],
  "time_diffs": [
    0.023888111114501953,
    0.2611708641052246,
    0.38991594314575195,
    0.4061431884765625,
    0.06004500389099121,
    0.0014519691467285156,
    0.0,
    0.11255002021789551,
    0.1399219036102295,
    0.06306004524230957,
    0.02877497673034668,
    0.05430889129638672,
    0.08823919296264648,
    0.08117198944091797,
    0.18684697151184082,
    0.09031105041503906,
    0.18604087829589844,
    0.07858610153198242,
    0.2018108367919922,
    0.16835498809814453,
    0.41710519790649414,
    0.08382201194763184,
    0.008830785751342773,
    0.0,
    0.0005102157592773438,
    0.1417548656463623,
    0.10527491569519043,
    0.04262900352478027,
    0.027207136154174805,
    0.07667398452758789,
    0.05247902870178223,
    0.08522295951843262,
    0.030401945114135742,
    0.045768022537231445,
    0.04742002487182617,
    0.05621194839477539,
    0.06088900566101074,
    0.09487414360046387,
    0.3228118419647217,
    0.31890201568603516,
    0.07557201385498047,
    0.16289591789245605,
    0.0813441276550293,
    0.09084510803222656,
    0.043684959411621094,
    0.08757495880126953,
    0.08517789840698242,
    0.16003203392028809,
    0.12469601631164551,
    0.059556007385253906,
    0.09532999992370605,
    0.04353499412536621,
    0.05581998825073242,
    0.0674140453338623,
    0.1574239730834961,
    0.018516063690185547,
    0.1757488250732422,
    0.10032200813293457,
    0.152069091796875,
    0.056684017181396484,
    0.0,
    0.03245210647583008,
    0.0
  ]
}