{
  "local_port": 33538,
  "remote_port": 443,
  "prompt": "What are interesting fact about mathematicians?",
  "response": "Mathematicians have made countless contributions to our understanding of the world, and many have fascinating personal stories and accomplishments beyond their mathematical work. Here are some interesting facts about mathematicians:\n\n1. **Srinivasa Ramanujan (1887\u20131920):**\n   - **Self-Taught Genius:** Ramanujan, an Indian mathematician, made substantial contributions to mathematical analysis, number theory, and continued fractions despite having almost no formal training in pure mathematics.\n   - **Intuitive Insights:** He developed highly original theorems based on intuition and patterns he observed in numbers, many of which were later proven correct by other mathematicians.\n\n2. **Emmy Noether (1882\u20131935):**\n   - **Mother of Modern Algebra:** Considered one of the greatest female mathematicians, Noether developed theories that transformed algebra and physics.\n   - **Noether's Theorem:** This fundamental theorem links symmetries in physics to conservation laws, profoundly impacting theoretical physics.\n\n3. **Leonhard Euler (1707\u20131783):**\n   - **Prolific Output:** Euler published over 800 papers and books, covering a vast range of mathematical topics, including topology, number theory, and graph theory.\n   - **Euler's Identity:** Often cited as one of the most beautiful mathematical equations, \\( e^{i\\pi} + 1 = 0 \\), it beautifully connects five fundamental mathematical constants.\n\n4. **Katherine Johnson (1918\u20132020):**\n   - **NASA Mathematician:** Johnson's calculations of orbital mechanics were critical to the success of the first U.S. crewed spaceflights, including John Glenn's historic orbit around Earth.\n   - **Inspiration for \"Hidden Figures\":** Her story, along with other African-American female mathematicians at NASA, was popularized in the book and film \"Hidden Figures.\"\n\n5. **Andrew Wiles (b. 1953):**\n   - **Proved Fermat's Last Theorem:** After more than 350 years, Wiles successfully proved Fermat's Last Theorem, solving one of mathematics' most famous and long-standing puzzles.\n   - **Personal Sacrifice:** He worked in near isolation for years to solve the theorem, facing numerous challenges and setbacks before achieving success in 1994.\n\n6. **Hypatia of Alexandria (c. 360\u2013415 AD):**\n   - **One of the First Known Female Mathematicians:** Hypatia was a renowned teacher and philosopher in ancient Egypt, contributing to mathematics and astronomy.\n   - **Tragic End:** She was tragically killed during political and religious turmoil, symbolizing the loss of classical knowledge during that era.\n\n7. **Paul Erd\u0151s (1913\u20131996):**\n   - **Prolific Collaborator:** Erd\u0151s authored around 1,500 mathematical papers with over 500 collaborators, fostering a highly collaborative spirit in mathematics.\n   - **Erd\u0151s Number:** A playful way to describe the \"collaborative distance\" between an author and Erd\u0151s. For example, an Erd\u0151s Number of 1 means direct collaboration.\n\n8. **Maryam Mirzakhani (1977\u20132017):**\n   - **First Woman to Win the Fields Medal:** Mirzakhani, an Iranian mathematician, received the prestigious Fields Medal in 2014 for her work on the dynamics and geometry of Riemann surfaces.\n   - **Impact on Geometry and Topology:** Her research has advanced the understanding of deeply complex geometric structures.\n\n9. **George Boole (1815\u20131864):**\n   - **Founder of Boolean Algebra:** Boole's work laid the groundwork for the digital age, as Boolean logic is fundamental to computer science and electronic circuits.\n   - **Innovative Teaching Methods:** Beyond his mathematical work, Boole was also dedicated to education reform and innovative teaching techniques.\n\n10. **Ada Lovelace (1815\u20131852):**\n    - **First Computer Programmer:** Working with Charles Babbage, Lovelace wrote what is considered the first algorithm intended to be processed by a machine, earning her the title of the first computer programmer.\n    - **Visionary Ideas:** She foresaw the potential for computers to go beyond mere calculations, anticipating modern computing's versatility.\n\n11. **Terence Tao (b. 1975):**\n    - **Child Prodigy:** Tao displayed extraordinary mathematical abilities from a young age, participating in international mathematical olympiads by age 10.\n    - **Fields Medalist:** Awarded the Fields Medal in 2006 for his contributions to partial differential equations, combinatorics, and harmonic analysis.\n\n12. **Benjamin Banneker (1731\u20131806):**\n    - **African-American Mathematician and Inventor:** Banneker was a free African-American almanac author, surveyor, and farmer who corresponded with Thomas Jefferson on issues of race and equality.\n    - **Astronomical Contributions:** He accurately predicted solar and lunar eclipses and built one of the first clockworks in America.\n\n13. **Carl Friedrich Gauss (1777\u20131855):**\n    - **Prince of Mathematicians:** Gauss made significant contributions across various fields, including number theory, statistics, analysis, differential geometry, and astronomy.\n    - **Disquisitiones Arithmeticae:** His seminal work laid the foundation for modern number theory.\n\n14. **Florence Nightingale (1820\u20131910):**\n    - **Pioneer in Statistics:** Beyond her renowned work in nursing, Nightingale utilized statistical techniques to advocate for sanitary conditions in hospitals, saving countless lives.\n    - **Data Visualization:** She was a master of data representation, using innovative charts and diagrams to effectively communicate her findings.\n\n15. **Mary Cartwright (1900\u20131998):**\n    - **Founder of Nonlinear Theory:** Cartwright made pivotal contributions to chaos theory and the study of nonlinear differential equations.\n    - **Breaking Barriers:** As one of the prominent female mathematicians of her time, she inspired future generations of women in mathematics.\n\nThese mathematicians not only advanced their respective fields but also often overcame significant personal and societal challenges. Their legacies continue to influence modern science, technology, and education.",
  "response_tokens": [
    "Mat",
    "hem",
    "atic",
    "ians",
    " have",
    " made",
    " countless",
    " contributions",
    " to",
    " our",
    " understanding",
    " of",
    " the",
    " world",
    ",",
    " and",
    " many",
    " have",
    " fascinating",
    " personal",
    " stories",
    " and",
    " accomplishments",
    " beyond",
    " their",
    " mathematical",
    " work",
    ".",
    " Here",
    " are",
    " some",
    " interesting",
    " facts",
    " about",
    " mathematic",
    "ians",
    ":\n\n1",
    ".",
    " **",
    "S",
    "rin",
    "iv",
    "asa",
    " Ram",
    "anu",
    "jan",
    " (",
    "188",
    "7",
    "\u2013",
    "192",
    "0",
    "):",
    "**\n  ",
    " -",
    " **",
    "Self",
    "-T",
    "aught",
    " Genius",
    ":**",
    " Ram",
    "anu",
    "jan",
    ",",
    " an",
    " Indian",
    " mathematic",
    "ian",
    ",",
    " made",
    " substantial",
    " contributions",
    " to",
    " mathematical",
    " analysis",
    ",",
    " number",
    " theory",
    ",",
    " and",
    " continued",
    " fractions",
    " despite",
    " having",
    " almost",
    " no",
    " formal",
    " training",
    " in",
    " pure",
    " mathematics",
    ".\n  ",
    " -",
    " **",
    "Int",
    "uitive",
    " Insights",
    ":**",
    " He",
    " developed",
    " highly",
    " original",
    " the",
    "ore",
    "ms",
    " based",
    " on",
    " intuition",
    " and",
    " patterns",
    " he",
    " observed",
    " in",
    " numbers",
    ",",
    " many",
    " of",
    " which",
    " were",
    " later",
    " proven",
    " correct",
    " by",
    " other",
    " mathematic",
    "ians",
    ".\n\n2",
    ".",
    " **",
    "Em",
    "my",
    " No",
    "ether",
    " (",
    "188",
    "2",
    "\u2013",
    "193",
    "5",
    "):",
    "**\n  ",
    " -",
    " **",
    "Mother",
    " of",
    " Modern",
    " Algebra",
    ":**",
    " Consider",
    "ed",
    " one",
    " of",
    " the",
    " greatest",
    " female",
    " mathematic",
    "ians",
    ",",
    " No",
    "ether",
    " developed",
    " theories",
    " that",
    " transformed",
    " algebra",
    " and",
    " physics",
    ".\n  ",
    " -",
    " **",
    "No",
    "ether",
    "'s",
    " The",
    "orem",
    ":**",
    " This",
    " fundamental",
    " theorem",
    " links",
    " sym",
    "met",
    "ries",
    " in",
    " physics",
    " to",
    " conservation",
    " laws",
    ",",
    " profoundly",
    " impacting",
    " theoretical",
    " physics",
    ".\n\n3",
    ".",
    " **",
    "Leon",
    "hard",
    " Euler",
    " (",
    "170",
    "7",
    "\u2013",
    "178",
    "3",
    "):",
    "**\n  ",
    " -",
    " **",
    "Pro",
    "l",
    "ific",
    " Output",
    ":**",
    " Euler",
    " published",
    " over",
    " ",
    "800",
    " papers",
    " and",
    " books",
    ",",
    " covering",
    " a",
    " vast",
    " range",
    " of",
    " mathematical",
    " topics",
    ",",
    " including",
    " topology",
    ",",
    " number",
    " theory",
    ",",
    " and",
    " graph",
    " theory",
    ".\n  ",
    " -",
    " **",
    "Euler",
    "'s",
    " Identity",
    ":**",
    " Often",
    " cited",
    " as",
    " one",
    " of",
    " the",
    " most",
    " beautiful",
    " mathematical",
    " equations",
    ",",
    " \\(",
    " e",
    "^{",
    "i",
    "\\",
    "pi",
    "}",
    " +",
    " ",
    "1",
    " =",
    " ",
    "0",
    " \\",
    "),",
    " it",
    " beautifully",
    " connects",
    " five",
    " fundamental",
    " mathematical",
    " constants",
    ".\n\n4",
    ".",
    " **",
    "K",
    "atherine",
    " Johnson",
    " (",
    "191",
    "8",
    "\u2013",
    "202",
    "0",
    "):",
    "**\n  ",
    " -",
    " **",
    "NASA",
    " Mat",
    "hem",
    "atic",
    "ian",
    ":**",
    " Johnson",
    "'s",
    " calculations",
    " of",
    " orbital",
    " mechanics",
    " were",
    " critical",
    " to",
    " the",
    " success",
    " of",
    " the",
    " first",
    " U",
    ".S",
    ".",
    " crew",
    "ed",
    " space",
    "fl",
    "ights",
    ",",
    " including",
    " John",
    " Glenn",
    "'s",
    " historic",
    " orbit",
    " around",
    " Earth",
    ".\n  ",
    " -",
    " **",
    "In",
    "spiration",
    " for",
    " \"",
    "Hidden",
    " Figures",
    "\":",
    "**",
    " Her",
    " story",
    ",",
    " along",
    " with",
    " other",
    " African",
    "-American",
    " female",
    " mathematic",
    "ians",
    " at",
    " NASA",
    ",",
    " was",
    " popular",
    "ized",
    " in",
    " the",
    " book",
    " and",
    " film",
    " \"",
    "Hidden",
    " Figures",
    ".\"\n\n5",
    ".",
    " **",
    "Andrew",
    " W",
    "iles",
    " (",
    "b",
    ".",
    " ",
    "195",
    "3",
    "):",
    "**\n  ",
    " -",
    " **",
    "Pro",
    "ved",
    " Ferm",
    "at",
    "'s",
    " Last",
    " The",
    "orem",
    ":**",
    " After",
    " more",
    " than",
    " ",
    "350",
    " years",
    ",",
    " W",
    "iles",
    " successfully",
    " proved",
    " Ferm",
    "at",
    "'s",
    " Last",
    " The",
    "orem",
    ",",
    " solving",
    " one",
    " of",
    " mathematics",
    "'",
    " most",
    " famous",
    " and",
    " long",
    "-standing",
    " puzzles",
    ".\n  ",
    " -",
    " **",
    "Personal",
    " Sac",
    "rifice",
    ":**",
    " He",
    " worked",
    " in",
    " near",
    " isolation",
    " for",
    " years",
    " to",
    " solve",
    " the",
    " theorem",
    ",",
    " facing",
    " numerous",
    " challenges",
    " and",
    " setbacks",
    " before",
    " achieving",
    " success",
    " in",
    " ",
    "199",
    "4",
    ".\n\n6",
    ".",
    " **",
    "Hyp",
    "atia",
    " of",
    " Alexandria",
    " (",
    "c",
    ".",
    " ",
    "360",
    "\u2013",
    "415",
    " AD",
    "):",
    "**\n  ",
    " -",
    " **",
    "One",
    " of",
    " the",
    " First",
    " Known",
    " Female",
    " Mat",
    "hem",
    "atic",
    "ians",
    ":**",
    " Hyp",
    "atia",
    " was",
    " a",
    " renowned",
    " teacher",
    " and",
    " philosopher",
    " in",
    " ancient",
    " Egypt",
    ",",
    " contributing",
    " to",
    " mathematics",
    " and",
    " astronomy",
    ".\n  ",
    " -",
    " **",
    "Tr",
    "agic",
    " End",
    ":**",
    " She",
    " was",
    " trag",
    "ically",
    " killed",
    " during",
    " political",
    " and",
    " religious",
    " turmoil",
    ",",
    " symbol",
    "izing",
    " the",
    " loss",
    " of",
    " classical",
    " knowledge",
    " during",
    " that",
    " era",
    ".\n\n7",
    ".",
    " **",
    "Paul",
    " Erd",
    "\u0151s",
    " (",
    "191",
    "3",
    "\u2013",
    "199",
    "6",
    "):",
    "**\n  ",
    " -",
    " **",
    "Pro",
    "l",
    "ific",
    " Collabor",
    "ator",
    ":**",
    " Erd",
    "\u0151s",
    " authored",
    " around",
    " ",
    "1",
    ",",
    "500",
    " mathematical",
    " papers",
    " with",
    " over",
    " ",
    "500",
    " collaborators",
    ",",
    " fostering",
    " a",
    " highly",
    " collaborative",
    " spirit",
    " in",
    " mathematics",
    ".\n  ",
    " -",
    " **",
    "E",
    "rd",
    "\u0151s",
    " Number",
    ":**",
    " A",
    " playful",
    " way",
    " to",
    " describe",
    " the",
    " \"",
    "coll",
    "abor",
    "ative",
    " distance",
    "\"",
    " between",
    " an",
    " author",
    " and",
    " Erd",
    "\u0151s",
    ".",
    " For",
    " example",
    ",",
    " an",
    " Erd",
    "\u0151s",
    " Number",
    " of",
    " ",
    "1",
    " means",
    " direct",
    " collaboration",
    ".\n\n8",
    ".",
    " **",
    "Mary",
    "am",
    " Mir",
    "z",
    "akh",
    "ani",
    " (",
    "197",
    "7",
    "\u2013",
    "201",
    "7",
    "):",
    "**\n  ",
    " -",
    " **",
    "First",
    " Woman",
    " to",
    " Win",
    " the",
    " Fields",
    " Medal",
    ":**",
    " Mir",
    "z",
    "akh",
    "ani",
    ",",
    " an",
    " Iranian",
    " mathematic",
    "ian",
    ",",
    " received",
    " the",
    " prestigious",
    " Fields",
    " Medal",
    " in",
    " ",
    "201",
    "4",
    " for",
    " her",
    " work",
    " on",
    " the",
    " dynamics",
    " and",
    " geometry",
    " of",
    " R",
    "iem",
    "ann",
    " surfaces",
    ".\n  ",
    " -",
    " **",
    "Impact",
    " on",
    " Geometry",
    " and",
    " Top",
    "ology",
    ":**",
    " Her",
    " research",
    " has",
    " advanced",
    " the",
    " understanding",
    " of",
    " deeply",
    " complex",
    " geometric",
    " structures",
    ".\n\n9",
    ".",
    " **",
    "George",
    " Bo",
    "ole",
    " (",
    "181",
    "5",
    "\u2013",
    "186",
    "4",
    "):",
    "**\n  ",
    " -",
    " **",
    "Founder",
    " of",
    " Boolean",
    " Algebra",
    ":**",
    " Bo",
    "ole",
    "'s",
    " work",
    " laid",
    " the",
    " groundwork",
    " for",
    " the",
    " digital",
    " age",
    ",",
    " as",
    " Boolean",
    " logic",
    " is",
    " fundamental",
    " to",
    " computer",
    " science",
    " and",
    " electronic",
    " circuits",
    ".\n  ",
    " -",
    " **",
    "Innov",
    "ative",
    " Teaching",
    " Methods",
    ":**",
    " Beyond",
    " his",
    " mathematical",
    " work",
    ",",
    " Bo",
    "ole",
    " was",
    " also",
    " dedicated",
    " to",
    " education",
    " reform",
    " and",
    " innovative",
    " teaching",
    " techniques",
    ".\n\n10",
    ".",
    " **",
    "Ada",
    " Lov",
    "el",
    "ace",
    " (",
    "181",
    "5",
    "\u2013",
    "185",
    "2",
    "):",
    "**\n   ",
    " -",
    " **",
    "First",
    " Computer",
    " Programmer",
    ":**",
    " Working",
    " with",
    " Charles",
    " B",
    "abb",
    "age",
    ",",
    " Lov",
    "el",
    "ace",
    " wrote",
    " what",
    " is",
    " considered",
    " the",
    " first",
    " algorithm",
    " intended",
    " to",
    " be",
    " processed",
    " by",
    " a",
    " machine",
    ",",
    " earning",
    " her",
    " the",
    " title",
    " of",
    " the",
    " first",
    " computer",
    " programmer",
    ".\n   ",
    " -",
    " **",
    "Vision",
    "ary",
    " Ideas",
    ":**",
    " She",
    " fores",
    "aw",
    " the",
    " potential",
    " for",
    " computers",
    " to",
    " go",
    " beyond",
    " mere",
    " calculations",
    ",",
    " anticipating",
    " modern",
    " computing",
    "'s",
    " versatility",
    ".\n\n11",
    ".",
    " **",
    "Ter",
    "ence",
    " Tao",
    " (",
    "b",
    ".",
    " ",
    "197",
    "5",
    "):",
    "**\n   ",
    " -",
    " **",
    "Child",
    " Pro",
    "dig",
    "y",
    ":**",
    " Tao",
    " displayed",
    " extraordinary",
    " mathematical",
    " abilities",
    " from",
    " a",
    " young",
    " age",
    ",",
    " participating",
    " in",
    " international",
    " mathematical",
    " olymp",
    "i",
    "ads",
    " by",
    " age",
    " ",
    "10",
    ".\n   ",
    " -",
    " **",
    "Fields",
    " Medal",
    "ist",
    ":**",
    " Award",
    "ed",
    " the",
    " Fields",
    " Medal",
    " in",
    " ",
    "200",
    "6",
    " for",
    " his",
    " contributions",
    " to",
    " partial",
    " differential",
    " equations",
    ",",
    " combin",
    "ator",
    "ics",
    ",",
    " and",
    " harmonic",
    " analysis",
    ".\n\n12",
    ".",
    " **",
    "Benjamin",
    " B",
    "anne",
    "ker",
    " (",
    "173",
    "1",
    "\u2013",
    "180",
    "6",
    "):",
    "**\n   ",
    " -",
    " **",
    "African",
    "-American",
    " Mat",
    "hem",
    "atic",
    "ian",
    " and",
    " Invent",
    "or",
    ":**",
    " B",
    "anne",
    "ker",
    " was",
    " a",
    " free",
    " African",
    "-American",
    " al",
    "man",
    "ac",
    " author",
    ",",
    " survey",
    "or",
    ",",
    " and",
    " farmer",
    " who",
    " correspond",
    "ed",
    " with",
    " Thomas",
    " Jefferson",
    " on",
    " issues",
    " of",
    " race",
    " and",
    " equality",
    ".\n   ",
    " -",
    " **",
    "Astr",
    "onom",
    "ical",
    " Contributions",
    ":**",
    " He",
    " accurately",
    " predicted",
    " solar",
    " and",
    " lunar",
    " eclips",
    "es",
    " and",
    " built",
    " one",
    " of",
    " the",
    " first",
    " clock",
    "works",
    " in",
    " America",
    ".\n\n13",
    ".",
    " **",
    "Carl",
    " Friedrich",
    " Ga",
    "uss",
    " (",
    "177",
    "7",
    "\u2013",
    "185",
    "5",
    "):",
    "**\n   ",
    " -",
    " **",
    "Prince",
    " of",
    " Mat",
    "hem",
    "atic",
    "ians",
    ":**",
    " Ga",
    "uss",
    " made",
    " significant",
    " contributions",
    " across",
    " various",
    " fields",
    ",",
    " including",
    " number",
    " theory",
    ",",
    " statistics",
    ",",
    " analysis",
    ",",
    " differential",
    " geometry",
    ",",
    " and",
    " astronomy",
    ".\n   ",
    " -",
    " **",
    "Dis",
    "quisition",
    "es",
    " Ar",
    "ith",
    "met",
    "ica",
    "e",
    ":**",
    " His",
    " seminal",
    " work",
    " laid",
    " the",
    " foundation",
    " for",
    " modern",
    " number",
    " theory",
    ".\n\n14",
    ".",
    " **",
    "Flor",
    "ence",
    " Night",
    "ingale",
    " (",
    "182",
    "0",
    "\u2013",
    "191",
    "0",
    "):",
    "**\n   ",
    " -",
    " **",
    "P",
    "ioneer",
    " in",
    " Statistics",
    ":**",
    " Beyond",
    " her",
    " renowned",
    " work",
    " in",
    " nursing",
    ",",
    " Night",
    "ingale",
    " utilized",
    " statistical",
    " techniques",
    " to",
    " advocate",
    " for",
    " sanitary",
    " conditions",
    " in",
    " hospitals",
    ",",
    " saving",
    " countless",
    " lives",
    ".\n   ",
    " -",
    " **",
    "Data",
    " Visualization",
    ":**",
    " She",
    " was",
    " a",
    " master",
    " of",
    " data",
    " representation",
    ",",
    " using",
    " innovative",
    " charts",
    " and",
    " diagrams",
    " to",
    " effectively",
    " communicate",
    " her",
    " findings",
    ".\n\n15",
    ".",
    " **",
    "Mary",
    " Cart",
    "wright",
    " (",
    "190",
    "0",
    "\u2013",
    "199",
    "8",
    "):",
    "**\n   ",
    " -",
    " **",
    "Founder",
    " of",
    " Non",
    "linear",
    " Theory",
    ":**",
    " Cart",
    "wright",
    " made",
    " pivotal",
    " contributions",
    " to",
    " chaos",
    " theory",
    " and",
    " the",
    " study",
    " of",
    " nonlinear",
    " differential",
    " equations",
    ".\n   ",
    " -",
    " **",
    "Breaking",
    " Bar",
    "riers",
    ":**",
    " As",
    " one",
    " of",
    " the",
    " prominent",
    " female",
    " mathematic",
    "ians",
    " of",
    " her",
    " time",
    ",",
    " she",
    " inspired",
    " future",
    " generations",
    " of",
    " women",
    " in",
    " mathematics",
    ".\n\nThese",
    " mathematic",
    "ians",
    " not",
    " only",
    " advanced",
    " their",
    " respective",
    " fields",
    " but",
    " also",
    " often",
    " overcame",
    " significant",
    " personal",
    " and",
    " societal",
    " challenges",
    ".",
    " Their",
    " leg",
    "acies",
    " continue",
    " to",
    " influence",
    " modern",
    " science",
    ",",
    " technology",
    ",",
    " and",
    " education",
    "."
  ],
  "response_token_count": 1234,
  "temperature": 1.0,
  "data_lengths": [
    4425,
    525,
    1278,
    400,
    3328,
    1487,
    1487,
    558,
    553,
    556,
    3817,
    1490,
    2407,
    1021,
    563,
    556,
    558,
    553,
    555,
    1932,
    2395,
    2853,
    1475,
    2401,
    8288,
    3021,
    2407,
    2868,
    2412,
    3331,
    1482,
    561,
    2400,
    1947,
    2365,
    2394,
    1933,
    1934,
    2601,
    827,
    2866,
    1413,
    5170,
    1486,
    3286,
    2105,
    2871,
    5156,
    1934,
    1949,
    2400,
    3326,
    1029,
    3791,
    1022,
    3786,
    3329,
    3786,
    3762,
    515,
    1492,
    2098,
    2087,
    3666,
    2880,
    1831,
    1023,
    6547,
    2404,
    1488,
    558,
    1476,
    1481,
    1483,
    1475,
    1941,
    3342,
    2402,
    2401,
    2822,
    1470,
    2852,
    6087,
    2393,
    1490,
    1937,
    3330,
    1688,
    1950,
    4248,
    5654,
    1953,
    1938,
    5159,
    1473,
    1937,
    4247,
    1937,
    556,
    2407,
    4732,
    2402,
    3788,
    3299,
    892,
    2876,
    2858,
    2392,
    1475,
    1474,
    1480,
    6098,
    2404,
    1956,
    2869,
    1012,
    2403,
    2403,
    1901,
    2399,
    3324,
    1934,
    1030,
    2874,
    8288,
    1440,
    2406,
    1949,
    559,
    2394,
    1017,
    1017,
    556,
    1488,
    555,
    1014,
    8288,
    228,
    2419,
    4697,
    2394,
    1019,
    1485,
    4249,
    556,
    2886,
    1703,
    3694,
    894,
    1490,
    2396,
    3810,
    3785,
    1014,
    3313,
    1951,
    8288,
    6222,
    2416,
    3321,
    4220,
    1029,
    1301,
    4235,
    966,
    5185,
    1483,
    1019,
    3346,
    7005,
    1891,
    1487,
    4726,
    3788,
    4693,
    3328,
    1685,
    1684,
    3686,
    5643,
    1944,
    2860,
    7038,
    3330,
    1016,
    7003,
    2858,
    5204,
    8288,
    1871,
    2875,
    4709,
    8288,
    2987,
    8288,
    244,
    3334,
    3804,
    5637,
    2855,
    2867,
    8288,
    368,
    3784,
    556,
    2415,
    4720,
    2883,
    1492,
    2411,
    7050,
    1949,
    814,
    107,
    93
  ],
  "time_diffs": [
    0.046904802322387695,
    0.04915904998779297,
    0.13932299613952637,
    0.0,
    0.3973710536956787,
    0.0,
    0.0,
    9.5367431640625e-07,
    0.00019097328186035156,
    0.0,
    0.0,
    0.20651602745056152,
    0.0,
    0.00025391578674316406,
    0.0,
    0.0,
    0.0,
    0.0,
    0.0,
    1.1920928955078125e-06,
    7.295608520507812e-05,
    0.0,
    0.0,
    6.508827209472656e-05,
    0.1193549633026123,
    0.00010085105895996094,
    0.12827110290527344,
    0.0,
    9.5367431640625e-07,
    0.0,
    0.00011491775512695312,
    0.0,
    0.18874406814575195,
    0.0,
    0.00010895729064941406,
    0.0,
    0.0,
    6.413459777832031e-05,
    9.5367431640625e-07,
    6.604194641113281e-05,
    0.1442890167236328,
    0.00011897087097167969,
    0.0,
    0.0,
    0.0721280574798584,
    0.0,
    0.11081886291503906,
    0.0,
    0.0,
    0.13843703269958496,
    0.0001399517059326172,
    0.0,
    0.0,
    9.799003601074219e-05,
    0.0,
    0.19763708114624023,
    9.5367431640625e-07,
    8.702278137207031e-05,
    2.7894973754882812e-05,
    0.00010704994201660156,
    0.0,
    0.16392207145690918,
    0.0,
    0.0,
    0.00017905235290527344,
    0.0,
    0.0,
    0.16711091995239258,
    0.00014400482177734375,
    3.2901763916015625e-05,
    6.008148193359375e-05,
    0.0,
    4.410743713378906e-05,
    8.988380432128906e-05,
    0.0,
    0.16328907012939453,
    0.0,
    0.00011992454528808594,
    9.5367431640625e-07,
    8.0108642578125e-05,
    0.0,
    0.18320107460021973,
    0.0,
    0.0,
    0.00011682510375976562,
    9.5367431640625e-07,
    5.1021575927734375e-05,
    0.03320813179016113,
    0.10402989387512207,
    0.0,
    0.0,
    0.2011110782623291,
    9.5367431640625e-07,
    0.0,
    0.00011205673217773438,
    0.0,
    0.0,
    6.699562072753906e-05,
    7.867813110351562e-06,
    0.13804221153259277,
    0.0,
    0.0001418590545654297,
    9.5367431640625e-07,
    0.08395504951477051,
    0.0,
    0.08797502517700195,
    0.0,
    0.0,
    0.0001010894775390625,
    0.0,
    0.0,
    0.14804792404174805,
    0.0,
    0.0,
    0.00013494491577148438,
    0.0,
    0.17529296875,
    0.0,
    0.00013399124145507812,
    0.0,
    0.0,
    5.412101745605469e-05,
    0.0,
    0.16306591033935547,
    0.0,
    0.00013017654418945312,
    0.03741192817687988,
    0.0,
    9.298324584960938e-05,
    1.17106294631958,
    0.0,
    0.0,
    0.00014209747314453125,
    0.0,
    0.0,
    0.0,
    5.602836608886719e-05,
    6.29425048828125e-05,
    0.16748404502868652,
    0.0,
    0.0,
    9.799003601074219e-05,
    0.0,
    0.0,
    3.790855407714844e-05,
    0.1563730239868164,
    9.5367431640625e-07,
    0.0,
    0.00011110305786132812,
    0.0,
    0.1316540241241455,
    0.0,
    0.0,
    0.0001239776611328125,
    0.0,
    9.5367431640625e-07,
    0.14412689208984375,
    0.0,
    0.12119507789611816,
    0.0,
    0.0001220703125,
    0.0,
    0.019292831420898438,
    0.14803504943847656,
    0.00016498565673828125,
    0.0,
    0.0,
    0.0,
    0.14736509323120117,
    9.799003601074219e-05,
    5.2928924560546875e-05,
    0.0,
    0.17236018180847168,
    0.0,
    0.0,
    8.487701416015625e-05,
    0.09531497955322266,
    0.0,
    8.296966552734375e-05,
    0.10605597496032715,
    0.0,
    0.0947110652923584,
    0.00010395050048828125,
    0.0,
    6.604194641113281e-05,
    0.15678811073303223,
    0.0,
    0.0,
    0.125870943069458,
    0.0,
    0.021597862243652344,
    0.16750216484069824,
    0.00011205673217773438,
    0.0,
    0.12040996551513672,
    0.0,
    8.702278137207031e-05,
    0.19678997993469238,
    0.00012183189392089844,
    0.0,
    0.0,
    0.10263800621032715,
    0.0,
    0.0,
    0.00011420249938964844,
    0.12933087348937988,
    0.0,
    0.0,
    0.00011396408081054688,
    0.11663198471069336,
    0.0,
    0.0,
    0.05718398094177246,
    0.0004911422729492188,
    0.0008459091186523438
  ]
}