{
  "local_port": 60950,
  "remote_port": 443,
  "prompt": "What is the procedure for 48 days Lord Murugan fasting?",
  "response": "Observing a 48-day fast dedicated to Lord Murugan (also known as Kartikeya or Subramanya) is a profound spiritual practice undertaken by devotees seeking blessings, fulfillment of vows, or personal spiritual growth. This extended fast, often referred to as the **\"Sankatahara Chaturashara Kritham\"** or similar names based on regional traditions, involves a combination of strict dietary disciplines, daily worship, and devotional activities. Below is a comprehensive guide to help you understand and undertake this fasting ritual:\n\n### **1. Setting Your Intention**\n\n- **Purpose:** Clearly define why you wish to undertake this fast. Common reasons include seeking Lord Murugan's blessings, fulfilling a vow, achieving personal milestones, or spiritual purification.\n- **Resolution:** Make a sincere commitment to adhere to the fast's requirements for the entire duration.\n\n### **2. Preparation Phase**\n\n- **Consultation:** It's advisable to consult with a priest or a knowledgeable devotee to understand specific rituals and receive personalized guidance.\n- **Purification:**\n  - **Home:** Cleanse your living space to create a sacred environment. Decorate it with images or idols of Lord Murugan.\n  - **Self:** Engage in personal purification through bathing, wearing clean clothes, and maintaining hygiene.\n- **Gather Supplies:**\n  - Items such as fresh flowers, incense, lamps (diyas), holy water, fruits, nuts, and other permissible offerings.\n  - Scriptures or devotional literature related to Lord Murugan for daily reading.\n\n### **3. Dietary Guidelines**\n\nFasting diets can vary based on personal vows and regional practices, but generally include:\n\n- **Vegetarian Diet:** Adhere to a strict vegetarian diet, avoiding meat, fish, and eggs.\n- **Grain Abstinence:** Some devotees avoid grains, opting instead for foods like:\n  - **Fruits and Vegetables:** Prefer root vegetables like potatoes, carrots, and beets may be restricted in some traditions.\n  - **Dairy Products:** Milk, yogurt, and ghee are commonly consumed.\n  - **Nuts and Seeds:** Allowed as protein sources.\n- **Prohibited Foods:** Onions, garlic, and certain other vegetables may be avoided as they are considered tamasic (promoting lethargy) in some traditions.\n- **Hydration:** Drink plenty of water. Some may include herbal teas or specific fasting beverages approved by their tradition.\n- **Meals:** Typically, two to three small meals a day at fixed times, aligned with sunrise and sunset.\n\n### **4. Daily Worship Rituals**\n\nConsistency is key to a successful fast. Incorporate the following into your daily routine:\n\n- **Morning Puja:**\n  - **Ablutions:** Begin with a bath and wear clean clothes.\n  - **Invocation:** Chant mantras such as \"Om Saravanabhava\" or \"Om Subramanya.\"\n  - **Offerings:** Present flowers, fruits, incense, and lamps to the deity.\n  - **Meditation:** Spend time in meditation or silent reflection.\n- **Mantra Recitation:**\n  - Recite specific Lord Murugan mantras multiple times a day. Popular ones include:\n    - \"Om Muruganaya Namaha\"\n    - \"Om Skandaya Namaha\"\n- **Evening Puja:**\n  - Repeat the morning puja rituals, ensuring to offer light (diya) to symbolize dispelling darkness and ignorance.\n- **Scripture Reading:**\n  - Read and contemplate passages from texts like the *Skanda Purana* or hymns like *Thiruppugazh* dedicated to Lord Murugan.\n\n### **5. Special Practices and Observances**\n\n- **Chanting Fifteen or Sixteen Tavasana Kural Pillars:**\n  - Some traditions involve reciting specific stotras or hymns that praise Lord Murugan\u2019s virtues and deeds.\n- **Weekly Observances:**\n  - **Specific Days:** Tuesdays and Saturdays are especially auspicious for Lord Murugan. Incorporate additional prayers or fast on these days if desired.\n- **Community Involvement:**\n  - Participate in local temple events, group prayers, or satsangs (spiritual gatherings) to bolster your devotion and community support.\n\n### **6. Moral and Ethical Conduct**\n\n- **Behavioral Disciplines:**\n  - Strive to maintain honesty, kindness, and patience.\n  - Avoid negative behaviors such as lying, arguing, or indulging in gossip.\n- **Mental Purity:**\n  - Practice mindfulness and focus on positive thoughts. Use this period for self-improvement and overcoming personal challenges.\n\n### **7. Monitoring Health**\n\n- **Listen to Your Body:**\n  - While fasting, it's essential to remain attentive to your physical health. If you experience dizziness, weakness, or other health issues, seek medical advice.\n- **Balanced Nutrition:**\n  - Ensure that your diet, even while fasting, provides adequate nutrients to sustain your energy levels.\n\n### **8. Completion Ceremony (Vrat Parayanam)**\n\nAt the conclusion of the 48 days, perform a special ceremony to mark the end of the fast:\n\n- **Celebratory Puja:**\n  - Conduct a grand puja involving elaborate offerings, lighting of multiple lamps, and singing of devotional songs.\n- **Offerings:**\n  - Prepare a special meal or distribute prasadam (sanctified food) to family and friends.\n- **Gratitude:**\n  - Express gratitude to Lord Murugan for his blessings and acknowledge the personal growth experienced during the fast.\n\n### **9. Post-Fast Practices**\n\n- **Gradual Diet Reintroduction:**\n  - Slowly reintroduce regular foods into your diet to avoid digestive upset.\n- **Continued Devotion:**\n  - Maintain the spiritual gains by continuing regular worship, reading scriptures, and practicing learned disciplines.\n\n### **Additional Tips**\n\n- **Consistency:** Maintain daily routines without skipping days to uphold the fast\u2019s integrity.\n- **Flexibility:** Adapt rituals to fit your personal and family circumstances while respecting the fast's essence.\n- **Support System:** Engage family members or friends who can support and encourage you throughout the fasting period.\n\n### **Conclusion**\n\nEmbarking on a 48-day fast dedicated to Lord Murugan is a noble and spiritually enriching endeavor. It requires dedication, discipline, and sincere devotion. By following the above guidelines and tailoring them to fit your personal circumstances and regional traditions, you can effectively observe this fast and seek Lord Murugan's blessings for your life's endeavors.\n\n**Note:** Practices can vary widely based on regional customs, family traditions, and individual vows. It's highly recommended to consult with a knowledgeable priest or a seasoned devotee to receive personalized guidance tailored to your specific needs and circumstances.",
  "response_tokens": [
    "Observ",
    "ing",
    " a",
    " ",
    "48",
    "-day",
    " fast",
    " dedicated",
    " to",
    " Lord",
    " Mur",
    "ugan",
    " (",
    "also",
    " known",
    " as",
    " Kart",
    "ik",
    "eya",
    " or",
    " Sub",
    "ram",
    "anya",
    ")",
    " is",
    " a",
    " profound",
    " spiritual",
    " practice",
    " undertaken",
    " by",
    " devotees",
    " seeking",
    " blessings",
    ",",
    " fulfillment",
    " of",
    " vows",
    ",",
    " or",
    " personal",
    " spiritual",
    " growth",
    ".",
    " This",
    " extended",
    " fast",
    ",",
    " often",
    " referred",
    " to",
    " as",
    " the",
    " **",
    "\"",
    "S",
    "ank",
    "ata",
    "hara",
    " Ch",
    "atur",
    "ash",
    "ara",
    " Kr",
    "ith",
    "am",
    "\"",
    "**",
    " or",
    " similar",
    " names",
    " based",
    " on",
    " regional",
    " traditions",
    ",",
    " involves",
    " a",
    " combination",
    " of",
    " strict",
    " dietary",
    " disciplines",
    ",",
    " daily",
    " worship",
    ",",
    " and",
    " devotional",
    " activities",
    ".",
    " Below",
    " is",
    " a",
    " comprehensive",
    " guide",
    " to",
    " help",
    " you",
    " understand",
    " and",
    " undertake",
    " this",
    " fasting",
    " ritual",
    ":\n\n###",
    " **",
    "1",
    ".",
    " Setting",
    " Your",
    " Int",
    "ention",
    "**\n\n-",
    " **",
    "Purpose",
    ":**",
    " Clearly",
    " define",
    " why",
    " you",
    " wish",
    " to",
    " undertake",
    " this",
    " fast",
    ".",
    " Common",
    " reasons",
    " include",
    " seeking",
    " Lord",
    " Mur",
    "ugan",
    "'s",
    " blessings",
    ",",
    " fulfilling",
    " a",
    " vow",
    ",",
    " achieving",
    " personal",
    " milestones",
    ",",
    " or",
    " spiritual",
    " purification",
    ".\n-",
    " **",
    "Resolution",
    ":**",
    " Make",
    " a",
    " sincere",
    " commitment",
    " to",
    " adhere",
    " to",
    " the",
    " fast",
    "'s",
    " requirements",
    " for",
    " the",
    " entire",
    " duration",
    ".\n\n###",
    " **",
    "2",
    ".",
    " Preparation",
    " Phase",
    "**\n\n-",
    " **",
    "Consult",
    "ation",
    ":**",
    " It's",
    " advisable",
    " to",
    " consult",
    " with",
    " a",
    " priest",
    " or",
    " a",
    " knowledgeable",
    " devote",
    "e",
    " to",
    " understand",
    " specific",
    " rituals",
    " and",
    " receive",
    " personalized",
    " guidance",
    ".\n-",
    " **",
    "Pur",
    "ification",
    ":",
    "**\n ",
    " -",
    " **",
    "Home",
    ":**",
    " Clean",
    "se",
    " your",
    " living",
    " space",
    " to",
    " create",
    " a",
    " sacred",
    " environment",
    ".",
    " Decor",
    "ate",
    " it",
    " with",
    " images",
    " or",
    " idols",
    " of",
    " Lord",
    " Mur",
    "ugan",
    ".\n ",
    " -",
    " **",
    "Self",
    ":**",
    " Engage",
    " in",
    " personal",
    " purification",
    " through",
    " bathing",
    ",",
    " wearing",
    " clean",
    " clothes",
    ",",
    " and",
    " maintaining",
    " hygiene",
    ".\n-",
    " **",
    "Gather",
    " Supplies",
    ":",
    "**\n ",
    " -",
    " Items",
    " such",
    " as",
    " fresh",
    " flowers",
    ",",
    " incense",
    ",",
    " lamps",
    " (",
    "d",
    "iyas",
    "),",
    " holy",
    " water",
    ",",
    " fruits",
    ",",
    " nuts",
    ",",
    " and",
    " other",
    " permissible",
    " offerings",
    ".\n ",
    " -",
    " Scriptures",
    " or",
    " devotional",
    " literature",
    " related",
    " to",
    " Lord",
    " Mur",
    "ugan",
    " for",
    " daily",
    " reading",
    ".\n\n###",
    " **",
    "3",
    ".",
    " Dietary",
    " Guidelines",
    "**\n\nF",
    "asting",
    " diets",
    " can",
    " vary",
    " based",
    " on",
    " personal",
    " vows",
    " and",
    " regional",
    " practices",
    ",",
    " but",
    " generally",
    " include",
    ":\n\n-",
    " **",
    "Veget",
    "arian",
    " Diet",
    ":**",
    " Ad",
    "here",
    " to",
    " a",
    " strict",
    " vegetarian",
    " diet",
    ",",
    " avoiding",
    " meat",
    ",",
    " fish",
    ",",
    " and",
    " eggs",
    ".\n-",
    " **",
    "Gr",
    "ain",
    " Abst",
    "inence",
    ":**",
    " Some",
    " devotees",
    " avoid",
    " grains",
    ",",
    " opting",
    " instead",
    " for",
    " foods",
    " like",
    ":\n ",
    " -",
    " **",
    "F",
    "ruits",
    " and",
    " Veget",
    "ables",
    ":**",
    " Prefer",
    " root",
    " vegetables",
    " like",
    " potatoes",
    ",",
    " carrots",
    ",",
    " and",
    " be",
    "ets",
    " may",
    " be",
    " restricted",
    " in",
    " some",
    " traditions",
    ".\n ",
    " -",
    " **",
    "D",
    "airy",
    " Products",
    ":**",
    " Milk",
    ",",
    " yogurt",
    ",",
    " and",
    " g",
    "hee",
    " are",
    " commonly",
    " consumed",
    ".\n ",
    " -",
    " **",
    "N",
    "uts",
    " and",
    " Seeds",
    ":**",
    " Allowed",
    " as",
    " protein",
    " sources",
    ".\n-",
    " **",
    "Pro",
    "hibited",
    " Foods",
    ":**",
    " On",
    "ions",
    ",",
    " garlic",
    ",",
    " and",
    " certain",
    " other",
    " vegetables",
    " may",
    " be",
    " avoided",
    " as",
    " they",
    " are",
    " considered",
    " tam",
    "asic",
    " (",
    "prom",
    "oting",
    " leth",
    "arg",
    "y",
    ")",
    " in",
    " some",
    " traditions",
    ".\n-",
    " **",
    "Hyd",
    "ration",
    ":**",
    " Drink",
    " plenty",
    " of",
    " water",
    ".",
    " Some",
    " may",
    " include",
    " herbal",
    " teas",
    " or",
    " specific",
    " fasting",
    " beverages",
    " approved",
    " by",
    " their",
    " tradition",
    ".\n-",
    " **",
    "Meals",
    ":**",
    " Typically",
    ",",
    " two",
    " to",
    " three",
    " small",
    " meals",
    " a",
    " day",
    " at",
    " fixed",
    " times",
    ",",
    " aligned",
    " with",
    " sunrise",
    " and",
    " sunset",
    ".\n\n###",
    " **",
    "4",
    ".",
    " Daily",
    " Worship",
    " Ritual",
    "s",
    "**\n\nConsistency",
    " is",
    " key",
    " to",
    " a",
    " successful",
    " fast",
    ".",
    " Incorpor",
    "ate",
    " the",
    " following",
    " into",
    " your",
    " daily",
    " routine",
    ":\n\n-",
    " **",
    "Morning",
    " Pu",
    "ja",
    ":",
    "**\n ",
    " -",
    " **",
    "A",
    "bl",
    "utions",
    ":**",
    " Begin",
    " with",
    " a",
    " bath",
    " and",
    " wear",
    " clean",
    " clothes",
    ".\n ",
    " -",
    " **",
    "Invocation",
    ":**",
    " Chant",
    " man",
    "tras",
    " such",
    " as",
    " \"",
    "Om",
    " Sar",
    "avan",
    "abh",
    "ava",
    "\"",
    " or",
    " \"",
    "Om",
    " Sub",
    "ram",
    "anya",
    ".\"\n ",
    " -",
    " **",
    "Offer",
    "ings",
    ":**",
    " Present",
    " flowers",
    ",",
    " fruits",
    ",",
    " incense",
    ",",
    " and",
    " lamps",
    " to",
    " the",
    " deity",
    ".\n ",
    " -",
    " **",
    "Medit",
    "ation",
    ":**",
    " Spend",
    " time",
    " in",
    " meditation",
    " or",
    " silent",
    " reflection",
    ".\n-",
    " **",
    "Man",
    "tra",
    " Rec",
    "itation",
    ":",
    "**\n ",
    " -",
    " Rec",
    "ite",
    " specific",
    " Lord",
    " Mur",
    "ugan",
    " man",
    "tras",
    " multiple",
    " times",
    " a",
    " day",
    ".",
    " Popular",
    " ones",
    " include",
    ":\n   ",
    " -",
    " \"",
    "Om",
    " Mur",
    "ugan",
    "aya",
    " Nam",
    "aha",
    "\"\n   ",
    " -",
    " \"",
    "Om",
    " Sk",
    "and",
    "aya",
    " Nam",
    "aha",
    "\"\n-",
    " **",
    "Even",
    "ing",
    " Pu",
    "ja",
    ":",
    "**\n ",
    " -",
    " Repeat",
    " the",
    " morning",
    " pu",
    "ja",
    " rituals",
    ",",
    " ensuring",
    " to",
    " offer",
    " light",
    " (",
    "di",
    "ya",
    ")",
    " to",
    " symbolize",
    " disp",
    "elling",
    " darkness",
    " and",
    " ignorance",
    ".\n-",
    " **",
    "Script",
    "ure",
    " Reading",
    ":",
    "**\n ",
    " -",
    " Read",
    " and",
    " contemplate",
    " passages",
    " from",
    " texts",
    " like",
    " the",
    " *",
    "Sk",
    "anda",
    " Pur",
    "ana",
    "*",
    " or",
    " hym",
    "ns",
    " like",
    " *",
    "Th",
    "ir",
    "upp",
    "ug",
    "azh",
    "*",
    " dedicated",
    " to",
    " Lord",
    " Mur",
    "ugan",
    ".\n\n###",
    " **",
    "5",
    ".",
    " Special",
    " Practices",
    " and",
    " Observ",
    "ances",
    "**\n\n-",
    " **",
    "Ch",
    "ant",
    "ing",
    " Fif",
    "teen",
    " or",
    " Six",
    "teen",
    " T",
    "avas",
    "ana",
    " K",
    "ural",
    " Pill",
    "ars",
    ":",
    "**\n ",
    " -",
    " Some",
    " traditions",
    " involve",
    " rec",
    "iting",
    " specific",
    " st",
    "otras",
    " or",
    " hym",
    "ns",
    " that",
    " praise",
    " Lord",
    " Mur",
    "ugan",
    "\u2019s",
    " virtues",
    " and",
    " deeds",
    ".\n-",
    " **",
    "Weekly",
    " Observ",
    "ances",
    ":",
    "**\n ",
    " -",
    " **",
    "Specific",
    " Days",
    ":**",
    " Tuesdays",
    " and",
    " Saturdays",
    " are",
    " especially",
    " ausp",
    "icious",
    " for",
    " Lord",
    " Mur",
    "ugan",
    ".",
    " Incorpor",
    "ate",
    " additional",
    " prayers",
    " or",
    " fast",
    " on",
    " these",
    " days",
    " if",
    " desired",
    ".\n-",
    " **",
    "Community",
    " In",
    "vol",
    "vement",
    ":",
    "**\n ",
    " -",
    " Participate",
    " in",
    " local",
    " temple",
    " events",
    ",",
    " group",
    " prayers",
    ",",
    " or",
    " sats",
    "angs",
    " (",
    "sp",
    "iritual",
    " gatherings",
    ")",
    " to",
    " bolster",
    " your",
    " devotion",
    " and",
    " community",
    " support",
    ".\n\n###",
    " **",
    "6",
    ".",
    " Moral",
    " and",
    " Ethical",
    " Conduct",
    "**\n\n-",
    " **",
    "Behavior",
    "al",
    " Disc",
    "ipl",
    "ines",
    ":",
    "**\n ",
    " -",
    " Str",
    "ive",
    " to",
    " maintain",
    " honesty",
    ",",
    " kindness",
    ",",
    " and",
    " patience",
    ".\n ",
    " -",
    " Avoid",
    " negative",
    " behaviors",
    " such",
    " as",
    " lying",
    ",",
    " arguing",
    ",",
    " or",
    " indul",
    "ging",
    " in",
    " gossip",
    ".\n-",
    " **",
    "Mental",
    " Pur",
    "ity",
    ":",
    "**\n ",
    " -",
    " Practice",
    " mindfulness",
    " and",
    " focus",
    " on",
    " positive",
    " thoughts",
    ".",
    " Use",
    " this",
    " period",
    " for",
    " self",
    "-im",
    "provement",
    " and",
    " overcoming",
    " personal",
    " challenges",
    ".\n\n###",
    " **",
    "7",
    ".",
    " Monitoring",
    " Health",
    "**\n\n-",
    " **",
    "Listen",
    " to",
    " Your",
    " Body",
    ":",
    "**\n ",
    " -",
    " While",
    " fasting",
    ",",
    " it's",
    " essential",
    " to",
    " remain",
    " attentive",
    " to",
    " your",
    " physical",
    " health",
    ".",
    " If",
    " you",
    " experience",
    " dizziness",
    ",",
    " weakness",
    ",",
    " or",
    " other",
    " health",
    " issues",
    ",",
    " seek",
    " medical",
    " advice",
    ".\n-",
    " **",
    "Balanced",
    " Nutrition",
    ":",
    "**\n ",
    " -",
    " Ensure",
    " that",
    " your",
    " diet",
    ",",
    " even",
    " while",
    " fasting",
    ",",
    " provides",
    " adequate",
    " nutrients",
    " to",
    " sustain",
    " your",
    " energy",
    " levels",
    ".\n\n###",
    " **",
    "8",
    ".",
    " Completion",
    " Ceremony",
    " (",
    "V",
    "rat",
    " Par",
    "ayan",
    "am",
    ")**",
    "\n\nAt",
    " the",
    " conclusion",
    " of",
    " the",
    " ",
    "48",
    " days",
    ",",
    " perform",
    " a",
    " special",
    " ceremony",
    " to",
    " mark",
    " the",
    " end",
    " of",
    " the",
    " fast",
    ":\n\n-",
    " **",
    "Celebr",
    "atory",
    " Pu",
    "ja",
    ":",
    "**\n ",
    " -",
    " Conduct",
    " a",
    " grand",
    " pu",
    "ja",
    " involving",
    " elaborate",
    " offerings",
    ",",
    " lighting",
    " of",
    " multiple",
    " lamps",
    ",",
    " and",
    " singing",
    " of",
    " devotional",
    " songs",
    ".\n-",
    " **",
    "Offer",
    "ings",
    ":",
    "**\n ",
    " -",
    " Prepare",
    " a",
    " special",
    " meal",
    " or",
    " distribute",
    " pras",
    "adam",
    " (",
    "san",
    "ct",
    "ified",
    " food",
    ")",
    " to",
    " family",
    " and",
    " friends",
    ".\n-",
    " **",
    "Gr",
    "at",
    "itude",
    ":",
    "**\n ",
    " -",
    " Express",
    " gratitude",
    " to",
    " Lord",
    " Mur",
    "ugan",
    " for",
    " his",
    " blessings",
    " and",
    " acknowledge",
    " the",
    " personal",
    " growth",
    " experienced",
    " during",
    " the",
    " fast",
    ".\n\n###",
    " **",
    "9",
    ".",
    " Post",
    "-F",
    "ast",
    " Practices",
    "**\n\n-",
    " **",
    "Grad",
    "ual",
    " Diet",
    " Re",
    "int",
    "roduction",
    ":",
    "**\n ",
    " -",
    " Slowly",
    " re",
    "introdu",
    "ce",
    " regular",
    " foods",
    " into",
    " your",
    " diet",
    " to",
    " avoid",
    " digestive",
    " upset",
    ".\n-",
    " **",
    "Contin",
    "ued",
    " Dev",
    "otion",
    ":",
    "**\n ",
    " -",
    " Maintain",
    " the",
    " spiritual",
    " gains",
    " by",
    " continuing",
    " regular",
    " worship",
    ",",
    " reading",
    " scriptures",
    ",",
    " and",
    " practicing",
    " learned",
    " disciplines",
    ".\n\n###",
    " **",
    "Additional",
    " Tips",
    "**\n\n-",
    " **",
    "Consistency",
    ":**",
    " Maintain",
    " daily",
    " routines",
    " without",
    " skipping",
    " days",
    " to",
    " uphold",
    " the",
    " fast",
    "\u2019s",
    " integrity",
    ".\n-",
    " **",
    "Flex",
    "ibility",
    ":**",
    " Adapt",
    " rituals",
    " to",
    " fit",
    " your",
    " personal",
    " and",
    " family",
    " circumstances",
    " while",
    " respecting",
    " the",
    " fast",
    "'s",
    " essence",
    ".\n-",
    " **",
    "Support",
    " System",
    ":**",
    " Engage",
    " family",
    " members",
    " or",
    " friends",
    " who",
    " can",
    " support",
    " and",
    " encourage",
    " you",
    " throughout",
    " the",
    " fasting",
    " period",
    ".\n\n###",
    " **",
    "Conclusion",
    "**\n\nEmb",
    "arking",
    " on",
    " a",
    " ",
    "48",
    "-day",
    " fast",
    " dedicated",
    " to",
    " Lord",
    " Mur",
    "ugan",
    " is",
    " a",
    " noble",
    " and",
    " spiritually",
    " enriching",
    " endeavor",
    ".",
    " It",
    " requires",
    " dedication",
    ",",
    " discipline",
    ",",
    " and",
    " sincere",
    " devotion",
    ".",
    " By",
    " following",
    " the",
    " above",
    " guidelines",
    " and",
    " tailoring",
    " them",
    " to",
    " fit",
    " your",
    " personal",
    " circumstances",
    " and",
    " regional",
    " traditions",
    ",",
    " you",
    " can",
    " effectively",
    " observe",
    " this",
    " fast",
    " and",
    " seek",
    " Lord",
    " Mur",
    "ugan",
    "'s",
    " blessings",
    " for",
    " your",
    " life's",
    " endeavors",
    ".\n\n**",
    "Note",
    ":**",
    " Practices",
    " can",
    " vary",
    " widely",
    " based",
    " on",
    " regional",
    " customs",
    ",",
    " family",
    " traditions",
    ",",
    " and",
    " individual",
    " vows",
    ".",
    " It's",
    " highly",
    " recommended",
    " to",
    " consult",
    " with",
    " a",
    " knowledgeable",
    " priest",
    " or",
    " a",
    " seasoned",
    " devote",
    "e",
    " to",
    " receive",
    " personalized",
    " guidance",
    " tailored",
    " to",
    " your",
    " specific",
    " needs",
    " and",
    " circumstances",
    "."
  ],
  "response_token_count": 1296,
  "temperature": 1.0,
  "data_lengths": [
    4425,
    525,
    1278,
    400,
    1477,
    1473,
    1484,
    557,
    2860,
    1016,
    1936,
    3299,
    560,
    2411,
    3330,
    1944,
    2402,
    1745,
    7970,
    3803,
    3799,
    3330,
    4720,
    1945,
    2406,
    1907,
    1941,
    2872,
    1953,
    562,
    3333,
    2868,
    1951,
    4254,
    1484,
    2487,
    1300,
    3808,
    3328,
    1935,
    2406,
    3792,
    3326,
    1478,
    3795,
    3334,
    6860,
    220,
    2857,
    6897,
    3793,
    1936,
    2876,
    2407,
    2414,
    560,
    1480,
    2400,
    1478,
    8288,
    2058,
    5172,
    558,
    1292,
    2096,
    2084,
    890,
    1296,
    1691,
    1291,
    2480,
    1014,
    2408,
    2857,
    3331,
    559,
    1939,
    4254,
    2872,
    3776,
    2406,
    3328,
    1941,
    1481,
    1026,
    1028,
    1018,
    1483,
    1435,
    2404,
    1939,
    1022,
    1021,
    2085,
    1693,
    4264,
    4723,
    555,
    2851,
    4247,
    2403,
    1022,
    1942,
    3316,
    1221,
    347,
    2858,
    4249,
    3787,
    3783,
    1023,
    2868,
    8067,
    1942,
    2857,
    969,
    1476,
    8288,
    3883,
    4266,
    3322,
    3337,
    412,
    7003,
    2897,
    4068,
    3671,
    902,
    1295,
    1477,
    2403,
    1478,
    1484,
    1943,
    1477,
    1014,
    1482,
    1489,
    1486,
    558,
    3792,
    2867,
    934,
    3794,
    3781,
    5191,
    4715,
    560,
    2875,
    1690,
    1942,
    1483,
    1483,
    562,
    557,
    555,
    558,
    553,
    1478,
    2404,
    3784,
    1488,
    1487,
    553,
    556,
    1482,
    1483,
    1958,
    560,
    1471,
    523,
    3784,
    560,
    1942,
    1948,
    2872,
    3686,
    2494,
    499,
    6563,
    2877,
    2404,
    2860,
    4164,
    7010,
    1941,
    401,
    8071,
    3680,
    3314,
    5191,
    4726,
    2865,
    1016,
    1477,
    1479,
    1016,
    559,
    1019,
    554,
    560,
    558,
    2404,
    1486,
    511,
    2402,
    2414,
    2874,
    2423,
    3336,
    1703,
    6568,
    3334,
    566,
    1487,
    2402,
    2411,
    1406,
    1953,
    3335,
    6559,
    3806,
    2485,
    2504,
    1940,
    2427,
    1944,
    4718,
    5189,
    2871,
    3332,
    5659,
    2414,
    2873,
    1285,
    107,
    93
  ],
  "time_diffs": [
    0.05011487007141113,
    0.05228900909423828,
    0.1987290382385254,
    0.0,
    5.027451992034912,
    0.0,
    0.0,
    0.00013709068298339844,
    0.0,
    0.0,
    0.0,
    5.793571472167969e-05,
    2.002716064453125e-05,
    0.15449285507202148,
    0.0,
    0.00010704994201660156,
    0.0,
    0.00011014938354492188,
    0.10908293724060059,
    0.0,
    0.13913393020629883,
    9.5367431640625e-07,
    0.000141143798828125,
    0.0,
    0.14568781852722168,
    0.00010704994201660156,
    0.0,
    0.0,
    3.0994415283203125e-05,
    4.100799560546875e-05,
    0.14592599868774414,
    0.0,
    0.0,
    0.0,
    7.009506225585938e-05,
    0.05855202674865723,
    0.0,
    0.08359599113464355,
    0.0,
    7.486343383789062e-05,
    0.15432214736938477,
    0.0,
    0.0,
    0.00010800361633300781,
    0.0,
    0.16159987449645996,
    0.00010514259338378906,
    0.0,
    0.0,
    0.08588790893554688,
    0.05824708938598633,
    8.797645568847656e-05,
    0.13527393341064453,
    9.703636169433594e-05,
    0.0,
    0.0,
    9.5367431640625e-07,
    5.0067901611328125e-05,
    2.6941299438476562e-05,
    0.17056894302368164,
    0.0,
    0.000102996826171875,
    0.0,
    0.19629216194152832,
    8.082389831542969e-05,
    6.008148193359375e-05,
    3.790855407714844e-05,
    5.817413330078125e-05,
    0.00020885467529296875,
    3.600120544433594e-05,
    5.817413330078125e-05,
    7.581710815429688e-05,
    0.1534111499786377,
    0.0,
    0.0,
    9.5367431640625e-07,
    0.00013709068298339844,
    0.0,
    0.16331195831298828,
    9.5367431640625e-07,
    0.0,
    0.0,
    0.00011491775512695312,
    3.814697265625e-05,
    0.13712382316589355,
    7.104873657226562e-05,
    0.0,
    3.910064697265625e-05,
    4.792213439941406e-05,
    2.193450927734375e-05,
    3.0994415283203125e-05,
    6.198883056640625e-05,
    2.4080276489257812e-05,
    0.05393099784851074,
    8.392333984375e-05,
    0.10587000846862793,
    0.0,
    0.0,
    0.2052140235900879,
    0.0,
    0.0,
    0.0,
    0.00015115737915039062,
    0.0,
    9.5367431640625e-07,
    0.0,
    7.200241088867188e-05,
    0.1681058406829834,
    0.0,
    0.0,
    0.00010800361633300781,
    0.0,
    0.10619020462036133,
    0.09240889549255371,
    0.0,
    0.0001049041748046875,
    0.0,
    0.17610621452331543,
    9.5367431640625e-07,
    6.29425048828125e-05,
    0.1922130584716797,
    0.0,
    0.00010991096496582031,
    0.00013399124145507812,
    0.18302392959594727,
    0.0,
    1.1920928955078125e-06,
    8.296966552734375e-05,
    0.0,
    0.0038878917694091797,
    0.1565999984741211,
    0.0,
    7.104873657226562e-05,
    1.0013580322265625e-05,
    3.695487976074219e-05,
    2.002716064453125e-05,
    1.0013580322265625e-05,
    4.00543212890625e-05,
    3.3855438232421875e-05,
    1.5020370483398438e-05,
    0.1549820899963379,
    0.0,
    0.00011992454528808594,
    0.0,
    0.15901708602905273,
    0.0,
    0.0,
    7.605552673339844e-05,
    0.06360697746276855,
    7.295608520507812e-05,
    0.21124005317687988,
    0.0,
    0.0,
    0.0,
    0.0,
    0.0,
    0.00012493133544921875,
    0.0,
    0.0,
    3.2901763916015625e-05,
    0.9876949787139893,
    0.0,
    0.00021004676818847656,
    0.0,
    0.0,
    9.5367431640625e-07,
    0.0,
    0.0,
    8.416175842285156e-05,
    0.23645782470703125,
    0.00011014938354492188,
    0.0,
    0.0,
    4.100799560546875e-05,
    2.002716064453125e-05,
    0.0001659393310546875,
    0.07364988327026367,
    0.0,
    0.0,
    0.06689810752868652,
    0.19135093688964844,
    6.318092346191406e-05,
    0.0002338886260986328,
    7.510185241699219e-05,
    0.1948227882385254,
    0.0,
    8.416175842285156e-05,
    0.1791238784790039,
    0.0,
    0.02799510955810547,
    0.14191985130310059,
    4.7206878662109375e-05,
    0.00035381317138671875,
    0.2389240264892578,
    0.0,
    0.0,
    0.0,
    7.796287536621094e-05,
    7.700920104980469e-05,
    4.9114227294921875e-05,
    7.390975952148438e-05,
    3.910064697265625e-05,
    4.100799560546875e-05,
    3.886222839355469e-05,
    6.008148193359375e-05,
    2.193450927734375e-05,
    0.12024116516113281,
    0.0,
    0.0,
    7.891654968261719e-05,
    0.046835899353027344,
    0.08007597923278809,
    0.0,
    6.008148193359375e-05,
    0.13434600830078125,
    0.0,
    0.0004649162292480469,
    6.008148193359375e-05,
    4.9114227294921875e-05,
    0.18264389038085938,
    0.0,
    9.393692016601562e-05,
    0.07968902587890625,
    7.295608520507812e-05,
    0.08005213737487793,
    6.008148193359375e-05,
    3.790855407714844e-05,
    0.1427600383758545,
    8.082389831542969e-05,
    0.0,
    0.11261820793151855,
    6.890296936035156e-05,
    0.0,
    0.16276907920837402,
    0.0,
    0.0003478527069091797,
    0.04796409606933594
  ]
}