{
  "local_port": 58160,
  "remote_port": 443,
  "prompt": "What are the best resorts for a day outing in Bangalore?",
  "response": "Here are some popular resorts near Bangalore for a day outing:\n\n1. Popular Day Resorts:\n\u2022 Innovative Film City\n\u2022 Wonderla\n\u2022 Nrityagram Resort\n\u2022 Golden Palms Resort\n\u2022 Ramanagar Resorts\n\u2022 Eagleton Golf Resort\n\u2022 Red Soil Resort\n\n2. Nature-based Resorts:\n\u2022 Discovery Village\n\u2022 Jungle Lodges\n\u2022 Our Native Village\n\u2022 Prakruthi Resort\n\u2022 Terra Veena Resort\n\n3. Near Bangalore Outskirts:\n\u2022 Mango Meadows\n\u2022 Soul Gardens\n\u2022 Clarks Exotica\n\u2022 Le Meridien\n\u2022 The Pride Resort\n\n4. Adventure & Activity Resorts:\n\u2022 Mountainside Resort\n\u2022 Manchinbele Resort\n\u2022 Wild Canyon Resort\n\u2022 Majestic Waters Resort\n\n5. Budget-friendly Options:\n\u2022 Silver Oaks Resort\n\u2022 Herbal Retreat\n\u2022 Palm Meadows Resort\n\u2022 Green Country Resort\n\nKey considerations:\n\u2022 Distance from Bangalore\n\u2022 Activities offered\n\u2022 Price range\n\u2022 Amenities\n\u2022 Food options\n\u2022 Swimming pool\n\u2022 Team building facilities\n\nI recommend checking recent reviews and current pricing before finalizing your trip.",
  "temperature": 1.0,
  "data_lengths": [
    235,
    1065,
    405,
    405,
    409,
    435,
    425,
    418,
    422,
    415,
    421,
    422,
    414,
    433,
    426,
    420,
    424,
    420,
    431,
    420,
    440,
    421,
    430,
    417,
    419,
    426,
    431,
    411,
    423,
    423,
    410,
    418,
    414,
    427,
    423,
    423,
    430,
    416,
    427,
    428,
    418,
    425,
    435,
    422,
    420,
    435,
    419,
    435,
    419,
    425,
    441,
    420,
    414,
    428,
    410,
    415,
    430,
    414,
    415,
    412,
    413,
    417,
    441,
    406,
    409,
    493,
    127,
    113
  ],
  "time_diffs": [
    0.02486109733581543,
    0.19388508796691895,
    0.39720702171325684,
    0.0011029243469238281,
    0.0,
    0.10872101783752441,
    0.04802584648132324,
    0.04715609550476074,
    0.13394689559936523,
    0.10191917419433594,
    0.037641048431396484,
    0.09460783004760742,
    0.08091902732849121,
    0.18657302856445312,
    0.13380908966064453,
    0.14005279541015625,
    0.08324909210205078,
    0.09387993812561035,
    0.08799600601196289,
    0.13986611366271973,
    0.1336679458618164,
    0.09773993492126465,
    0.1390399932861328,
    0.1329340934753418,
    0.13479399681091309,
    0.13149189949035645,
    0.18037915229797363,
    0.1530139446258545,
    0.030419111251831055,
    0.08955979347229004,
    0.053344011306762695,
    0.042849063873291016,
    0.08924102783203125,
    0.09105706214904785,
    0.04448699951171875,
    0.0879509449005127,
    0.046633005142211914,
    0.04569888114929199,
    0.18100309371948242,
    0.10061097145080566,
    0.04273796081542969,
    0.08569502830505371,
    0.13493800163269043,
    0.12494707107543945,
    0.11241888999938965,
    0.12835407257080078,
    0.09189605712890625,
    0.13402986526489258,
    0.09263801574707031,
    0.04250502586364746,
    0.09488797187805176,
    0.09990096092224121,
    0.05227303504943848,
    0.09369301795959473,
    0.02611398696899414,
    0.04407501220703125,
    0.08932304382324219,
    0.04639601707458496,
    0.043868064880371094,
    0.04703688621520996,
    0.04427313804626465,
    0.04488682746887207,
    0.1427459716796875,
    0.020925045013427734,
    0.0003771781921386719,
    0.02394390106201172,
    0.0,
    0.0
  ]
}